// magnetic latitude, density
        -0.1278	        19.8354	
       0.126006	        19.8346	
       0.379806	        19.8201	
       0.635417	        19.7902	
        0.88921	         19.746	
        1.14299	        19.6869	
        1.39864	        19.6123	
        1.65248	        19.5227	
        1.90623	        19.4178	
        2.16009	        19.2973	
        2.41381	        19.1612	
        2.66945	        19.0089	
        2.92324	        18.8424	
         3.1753	        18.6614	
        3.42906	        18.4655	
        3.68289	         18.255	
        3.93667	        18.0311	
        4.19049	        17.7942	
        4.44244	        17.5458	
        4.69619	        17.2848	
        4.94824	        17.0133	
        5.20024	        16.7316	
        5.45224	        16.4397	
        5.70427	         16.138	
        5.95626	        15.8273	
        6.20834	        15.5081	
        6.46025	        15.1813	
        6.71049	        14.8483	
        6.96247	        14.5077	
        7.21275	        14.1623	
        7.46286	        13.8118	
        7.71298	         13.456	
        7.96335	        13.0964	
        8.21345	        12.7333	
        8.46189	        12.3686	
        8.71213	        12.0008	
        8.96054	        11.6325	
        9.20882	        11.2637	
        9.45736	        10.8947	
        9.70569	        10.5263	
        9.95237	        10.1603	
        10.2011	        9.79505	
         10.447	        9.43321	
        10.6943	        9.07496	
        10.9408	        8.72044	
        11.1857	         8.3713	
        11.4321	        8.02601	
        11.6768	        7.68721	
        11.9211	        7.35439	
        12.1659	        7.02795	
        12.4111	        6.70804	
        12.6558	        6.39602	
         12.899	        6.09277	
        13.1416	        5.79806	
        13.3849	        5.51142	
         13.628	        5.23398	
        13.8693	         4.9662	
        14.1125	        4.70713	
        14.3532	        4.45847	
        14.5946	        4.21941	
        14.8356	        3.99036	
         15.075	        3.77192	
        15.3166	        3.56274	
        15.5556	        3.36432	
        15.7955	        3.17599	
        16.0326	        2.99829	
        16.2719	        2.82955	
        16.5097	         2.6709	
        16.7489	        2.52128	
        16.9863	        2.38173	
        17.2225	        2.25161	
        17.4595	        2.13009	
        17.6964	        2.01747	
        17.9319	        1.91292	
        18.1675	        1.81668	
        18.4031	        1.72762	
        18.6393	        1.64628	
        18.8731	        1.57189	
         19.107	        1.50431	
        19.3425	        1.44252	
        19.5746	        1.38721	
        19.8095	        1.33705	
        20.0417	        1.29225	
        20.2754	        1.25194	
        20.5078	        1.21617	
          20.74	        1.18451	
        20.9723	        1.15668	
         21.203	        1.13192	
        21.4343	        1.11057	
         21.665	        1.09203	
        21.8959	        1.07559	
        22.1257	         1.0618	
        22.3548	        1.05016	
        22.5847	        1.03934	
        22.8131	        1.03106	
        23.0437	        1.02404	
        23.2723	        1.01747	
        23.5008	        1.01247	
        23.7278	        1.00839	
        23.9567	        1.00484	
        24.1836	        1.00212	
         24.412	       0.999513	
        24.6383	       0.997994	
        24.8658	       0.996442	
        25.0922	       0.995104	
        25.3171	       0.994325	
        25.5437	       0.993469	
        25.7688	       0.992937	
        25.9961	       0.992409	
        26.2203	       0.992421	
        26.4458	       0.991739	
        26.6704	       0.991763	
        26.8962	       0.991479	
        27.1189	       0.991513	
         27.344	       0.991394	
        27.5672	       0.991115	
        27.7922	       0.991307	
        28.0159	       0.991536	
        28.2382	       0.990832	
        28.4618	       0.991448	
        28.6846	       0.990928	
        28.9083	       0.991174	
        29.1318	       0.991111	
        29.3527	       0.991196	
        29.5757	       0.991026	
        29.7968	       0.991023	
        30.0206	       0.990973	
        30.2418	       0.991029	
        30.4635	        0.99104	
        30.6869	       0.990894	
        30.9078	       0.991315	
        31.1295	       0.990711	
        31.3507	       0.991046	
        31.5717	       0.991009	
        31.7933	       0.990847	
        32.0133	       0.991097	
        32.2346	       0.990956	
        32.4554	       0.990508	
        32.6772	       0.991196	
        32.8964	       0.990483	
        33.1188	       0.991644	
        33.3385	       0.990081	
        33.5597	        0.99141	
        33.7794	       0.990679	
        34.0005	       0.990826	
        34.2197	       0.990774	
        34.4408	       0.990534	
        34.6612	       0.991081	
        34.8832	       0.990536	
        35.1016	       0.990862	
        35.3221	       0.990568	
        35.5431	       0.991023	
        35.7625	       0.990471	
         35.984	       0.990796	
        36.2036	       0.990878	
         36.425	       0.990331	
        36.6452	       0.990812	
        36.8661	       0.990076	
        37.0853	       0.991243	
        37.3065	       0.990297	
        37.5273	        0.99039	
         37.748	       0.990929	
        37.9689	       0.990445	
        38.1894	       0.990332	
        38.4108	        0.99095	
        38.6315	       0.990214	
        38.8525	       0.990306	
        39.0751	       0.990306	
        39.2957	       0.990994	
        39.5179	       0.990248	
        39.7382	       0.990427	
        39.9601	       0.990659	
        40.1814	       0.989319	
        40.4051	       0.991145	
        40.6261	       0.989712	
        40.8484	       0.991304	
        41.0725	       0.989408	
        41.2949	       0.990495	
        41.5168	       0.990249	
        41.7402	       0.990381	
        41.9654	       0.990071	
        42.1888	       0.989441	
        42.4117	       0.991299	
        42.6365	       0.989241	
        42.8618	       0.990247	
        43.0867	       0.990478	
        43.3122	       0.989803	
         43.536	       0.990298	
        43.7618	       0.989543	
        43.9896	       0.991048	
        44.2132	       0.989362	
        44.4401	       0.988952	
        44.6665	       0.991235	
        44.8938	       0.989604	
         45.122	       0.990392	
        45.3485	        0.98847	
        45.5772	       0.990609	
        45.8069	       0.990524	
        46.0364	       0.988217	
        46.2667	        0.99001	
        46.4954	       0.989967	
        46.7266	       0.990201	
        46.9574	       0.988852	
        47.1895	       0.989128	
        47.4181	       0.989749	
        47.6525	       0.990003	
        47.8854	       0.989048	
        48.1177	       0.989264	
        48.3514	       0.988841	
        48.5849	       0.991645	
        48.8216	        0.98852	
        49.0579	       0.987916	
        49.2941	        0.99273	
        49.5285	       0.986883	
        49.7677	       0.990116	
        50.0052	       0.987321	
        50.2429	       0.992396	
        50.4836	       0.983724	
        50.7225	       0.992173	
        50.9637	       0.988599	
        51.2043	       0.988855	
        51.4469	       0.990668	
        51.6897	       0.987634	
        51.9346	       0.986864	
        52.1774	       0.990372	
        52.4228	        0.98971	
        52.6677	       0.984795	
        52.9149	       0.992668	
        53.1625	       0.986255	
        53.4122	       0.990263	
        53.6607	       0.986053	
         53.913	       0.990682	
        54.1643	       0.987129	
        54.4155	       0.990659	
        54.6697	       0.984223	
        54.9263	        0.99039	
        55.1814	        0.98507	
        55.4397	       0.993571	
        55.6958	       0.988646	
        55.9553	       0.980391	
        56.2175	        0.99239	
        56.4757	       0.989114	
          56.74	       0.986412	
        57.0049	       0.986734	
        57.2694	       0.983435	
        57.5378	       0.997641	
        57.8052	        0.97782	
        58.0761	       0.990302	
         58.346	       0.983232	
        58.6192	       0.987567	
         58.894	       0.988845	
        59.1693	       0.987882	
        59.4477	       0.977714	
